ID,WL,SAL,TEMP,WQ_1,WQ_2,WQ_3,WQ_4,WQ_5,WQ_6,WQ_7,WQ_8,WQ_9,WQ_10,WQ_11,WQ_12,WQ_13,WQ_14,WQ_15,WQ_16,WQ_17
1,133.0401,0.2771,18.2530,0.9681,295.9958,47.6293,1.0114,7.3034,0.0972,0.0000,358.4109,8.3040,2.3444,7.3440,0.0403,0.1205,0.0426,0.0403,0.0426,0.0426
2,132.0369,0.2772,18.2536,0.8939,292.1832,47.6643,1.0254,7.3251,0.0977,0.0000,358.4992,8.2309,2.5206,7.2794,0.0403,0.1195,0.0983,0.0968,0.0983,0.0983
3,131.0624,0.2772,17.6609,1.2274,291.5878,47.7017,1.0439,7.3524,0.0983,0.0000,358.5342,8.1336,2.7606,7.1933,0.0404,0.1181,0.1552,0.1545,0.1552,0.1552
4,129.0564,0.2773,17.2463,1.8712,293.1710,47.7299,1.0583,7.3736,0.0989,0.0000,358.5509,8.0770,2.9526,7.1430,0.0404,0.1172,0.1794,0.1791,0.1794,0.1794
5,127.0500,0.2773,16.7801,2.9363,296.2769,47.7637,1.0760,7.3997,0.0995,0.0000,358.5651,8.0216,3.1970,7.0939,0.0404,0.1164,0.1921,0.1919,0.1921,0.1921
6,125.0500,0.2774,16.2692,3.9871,300.2474,47.8037,1.0977,7.4320,0.1003,0.0000,358.5767,7.9564,3.5106,7.0359,0.0404,0.1155,0.1976,0.1975,0.1976,0.1976
7,124.2584,0.2774,16.2674,4.3692,302.1990,47.8267,1.1098,7.4501,0.1007,0.0000,358.5901,7.9197,3.6890,7.0034,0.0404,0.1150,0.1990,0.1990,0.1990,0.1990
8,123.7067,0.2772,16.2679,4.4653,303.4321,47.8800,1.1247,7.4713,0.1016,0.0000,358.6517,7.8951,3.9041,6.9749,0.0405,0.1148,0.1995,0.1994,0.1995,0.1995
9,123.4698,0.2773,16.2665,4.3072,303.4644,47.9064,1.1390,7.4930,0.1021,0.0000,358.6652,7.8499,4.1224,6.9350,0.0405,0.1141,0.1997,0.1997,0.1997,0.1997
10,122.8936,0.2773,16.2657,4.0354,302.2599,47.9352,1.1547,7.5169,0.1026,0.0000,358.6775,7.8002,4.3631,6.8911,0.0405,0.1134,0.1999,0.1999,0.1999,0.1999
11,122.7823,0.2773,16.2656,3.9706,301.9460,47.9457,1.1584,7.5230,0.1027,0.0000,358.7090,7.7894,4.4189,6.8815,0.0406,0.1133,0.1999,0.1999,0.1999,0.1999
12,122.5154,0.2773,16.2869,3.5467,299.3552,47.9928,1.1832,7.5794,0.1019,0.0019,357.7727,7.6477,4.8662,6.7558,0.0405,0.1112,0.2000,0.2000,0.2000,0.2000
13,122.5142,0.2772,16.5721,3.4250,291.3188,48.0121,1.1922,7.6201,0.1014,0.0031,356.2574,7.5990,5.0859,6.7041,0.0405,0.1103,0.2019,0.2018,0.2018,0.2000
14,122.5152,0.2771,16.7513,3.2489,285.3344,48.0516,1.2029,7.6610,0.1018,0.0032,355.0049,7.5786,5.3180,6.6561,0.0405,0.1096,0.2070,0.2067,0.2096,0.2026
15,122.5134,0.2771,16.7217,3.1228,283.3978,48.0816,1.2117,7.6852,0.1023,0.0032,354.4820,7.5681,5.4780,6.6260,0.0405,0.1091,0.2103,0.2099,0.2139,0.2040
16,122.5134,0.2770,16.8774,2.9847,281.2987,48.1465,1.2164,7.7192,0.1028,0.0030,353.4333,7.6412,5.6482,6.5947,0.0405,0.1085,0.2229,0.2223,0.2330,0.2100
17,122.5128,0.2770,16.7204,2.8681,281.4448,48.1886,1.2256,7.7423,0.1032,0.0029,353.0896,7.6580,5.8146,6.5662,0.0406,0.1081,0.2286,0.2279,0.2396,0.2111
18,122.5043,0.2770,16.7235,2.8660,281.4810,48.1951,1.2259,7.7437,0.1032,0.0029,353.1236,7.6592,5.8187,6.5663,0.0406,0.1081,0.2287,0.2280,0.2398,0.2111
19,122.2636,0.2767,16.8221,2.7525,281.4446,48.3456,1.2261,7.7823,0.1037,0.0028,351.9962,7.9470,5.9880,6.5449,0.0408,0.1077,0.2614,0.2603,0.2826,0.2175
20,122.2623,0.2764,16.7965,2.6760,281.4554,48.4611,1.2270,7.8081,0.1040,0.0028,351.3353,8.1701,6.1097,6.5313,0.0410,0.1074,0.2860,0.2845,0.3131,0.2204
21,122.2611,0.2763,16.6714,2.6118,281.8284,48.5254,1.2313,7.8249,0.1043,0.0027,351.0651,8.2681,6.2157,6.5178,0.0411,0.1072,0.2977,0.2961,0.3263,0.2209
22,122.2622,0.2756,16.6302,2.5693,281.9703,48.6931,1.2361,7.8420,0.1058,0.0026,350.8926,8.4535,6.3017,6.5449,0.0418,0.1086,0.3117,0.3099,0.3426,0.2210
23,122.2621,0.2752,16.6230,2.5063,282.1566,48.8596,1.2347,7.8691,0.1061,0.0026,350.2087,8.8063,6.4087,6.5397,0.0421,0.1084,0.3481,0.3459,0.3861,0.2231
24,122.2615,0.2743,16.6779,2.4319,281.8589,49.2400,1.2260,7.9172,0.1065,0.0026,348.9034,9.6703,6.5383,6.5511,0.0428,0.1085,0.4338,0.4305,0.4892,0.2262
25,122.2618,0.2724,16.5916,2.2784,281.3885,50.1094,1.2145,8.0221,0.1075,0.0024,346.5422,11.6142,6.8412,6.5803,0.0444,0.1086,0.6281,0.6221,0.7156,0.2282
26,122.2550,0.2723,16.6056,2.2470,284.6183,50.1625,1.2175,8.0326,0.1077,0.0024,346.4699,11.6953,6.9032,6.5744,0.0445,0.1085,0.6376,0.6315,0.7243,0.2277
27,121.6081,0.2723,16.6146,2.2050,288.4415,50.2022,1.2212,8.0421,0.1079,0.0024,346.4462,11.7348,6.9678,6.5636,0.0446,0.1083,0.6438,0.6376,0.7279,0.2268
28,120.6342,0.2719,16.1621,2.3357,298.3877,50.4299,1.2396,8.0939,0.1088,0.0021,346.0253,11.9976,7.3305,6.4848,0.0450,0.1069,0.6866,0.6799,0.7504,0.2205
29,120.6335,0.2699,16.1571,2.4472,300.9566,51.2987,1.2324,8.1987,0.1096,0.0021,343.9644,13.8642,7.6505,6.5037,0.0466,0.1069,0.8809,0.8715,0.9580,0.2196
30,120.6338,0.2676,16.1959,2.4637,299.4082,52.3251,1.2153,8.3076,0.1101,0.0024,341.5874,16.1761,7.8745,6.5654,0.0486,0.1075,1.1153,1.1026,1.2184,0.2207
31,120.6330,0.2656,16.2023,2.4644,297.4529,53.1520,1.2024,8.3946,0.1105,0.0025,339.7260,18.0344,8.0543,6.6158,0.0502,0.1080,1.3047,1.2892,1.4274,0.2212
32,120.6322,0.2635,16.2205,2.4654,295.3656,54.0699,1.1880,8.4894,0.1110,0.0026,337.7048,20.1029,8.2401,6.6747,0.0519,0.1087,1.5158,1.4971,1.6606,0.2218
33,120.6329,0.2622,16.1751,2.4509,294.2840,54.6164,1.1812,8.5476,0.1113,0.0027,336.5301,21.3109,8.3733,6.7056,0.0530,0.1090,1.6409,1.6203,1.7951,0.2218
34,120.6240,0.2622,16.1794,2.4513,294.2397,54.6592,1.1808,8.5523,0.1113,0.0027,336.4532,21.4018,8.3843,6.7080,0.0531,0.1090,1.6503,1.6296,1.8052,0.2218
35,120.4442,0.2619,15.8449,2.6959,297.0810,54.8116,1.1846,8.5754,0.1116,0.0026,336.1890,21.6633,8.4999,6.7021,0.0534,0.1088,1.6823,1.6611,1.8293,0.2207
36,120.1621,0.2615,15.5556,3.4356,302.4353,54.9885,1.1944,8.6087,0.1121,0.0025,335.8841,21.9032,8.7151,6.6798,0.0537,0.1084,1.7182,1.6964,1.8450,0.2184
37,117.4422,0.2615,15.5627,3.6658,303.9609,55.0400,1.1974,8.6186,0.1123,0.0025,335.8304,21.9646,8.7777,6.6735,0.0537,0.1083,1.7278,1.7059,1.8485,0.2177
38,116.3707,0.2525,15.7301,4.8232,305.5758,58.9198,1.1468,9.0136,0.1131,0.0036,327.8910,30.3084,9.5921,6.8774,0.0613,0.1102,2.6297,2.5926,2.7470,0.2152
39,116.3712,0.2489,15.7922,4.8686,303.9713,60.4763,1.1230,9.1661,0.1132,0.0041,324.7243,33.7439,9.8563,6.9853,0.0643,0.1114,2.9940,2.9506,3.1255,0.2157
40,116.3677,0.2432,15.9684,4.8536,300.7885,62.9214,1.0833,9.3991,0.1134,0.0048,319.7851,39.2086,10.2176,7.1687,0.0691,0.1135,3.5703,3.5166,3.7364,0.2173
41,116.3686,0.2377,16.1475,4.8459,297.8721,65.2851,1.0443,9.6204,0.1139,0.0052,315.0505,44.5223,10.5439,7.3515,0.0737,0.1156,4.1302,4.0661,4.3358,0.2191
42,116.3659,0.2270,16.4624,4.8353,293.9154,69.8876,0.9693,10.0432,0.1150,0.0054,305.9547,54.9287,11.1477,7.7168,0.0827,0.1199,5.2280,5.1423,5.5193,0.2230
43,116.3663,0.2066,16.9084,4.7778,290.6108,78.6331,0.8335,10.8308,0.1172,0.0056,288.9590,74.8464,12.2520,8.4277,0.0999,0.1283,7.3316,7.2000,7.7821,0.2300
44,116.3665,0.1819,17.2625,4.7061,289.4749,89.2762,0.6794,11.7741,0.1199,0.0056,268.5442,99.3149,13.5510,9.3122,0.1207,0.1388,9.9102,9.7147,10.5263,0.2377
45,116.3667,0.1383,17.7506,4.6747,289.5630,108.0568,0.4294,13.4103,0.1252,0.0058,232.8247,144.3369,15.5257,10.9960,0.1574,0.1588,14.4859,14.1407,15.4234,0.2495
46,116.3669,0.1158,18.1883,4.6743,293.4493,117.7597,0.2979,14.2605,0.1297,0.0060,214.2849,169.7962,16.1841,12.0079,0.1762,0.1711,16.8240,16.3802,18.0589,0.2554
47,116.3666,0.1060,18.6052,4.6494,302.4061,121.9422,0.2307,14.6560,0.1342,0.0062,206.1430,182.8995,16.1196,12.5825,0.1841,0.1782,17.7805,17.2691,19.2433,0.2574
48,116.3661,0.1044,18.3657,4.4796,302.1889,122.6673,0.2316,14.7434,0.1355,0.0060,204.8219,184.4436,16.2474,12.6345,0.1855,0.1787,17.9376,17.4128,19.2360,0.2552
49,116.3602,0.1044,17.9545,4.9859,300.8347,122.7341,0.2349,14.7554,0.1358,0.0059,204.7716,184.3586,16.2995,12.6254,0.1856,0.1786,17.9498,17.4241,19.1845,0.2545
50,115.1025,0.1043,17.9558,5.3336,299.9099,122.7686,0.2371,14.7623,0.1359,0.0059,204.7594,184.2675,16.3330,12.6178,0.1856,0.1785,17.9557,17.4296,19.1473,0.2540
51,114.2471,0.1041,17.7946,6.4019,293.7927,122.9300,0.2534,14.8012,0.1367,0.0054,204.5561,183.0176,16.5602,12.5229,0.1859,0.1771,17.9851,17.4565,18.7482,0.2489
52,114.2445,0.1037,17.6472,5.5257,290.4307,123.1548,0.2663,14.8434,0.1375,0.0052,204.2283,182.4864,16.7518,12.4723,0.1862,0.1763,18.0286,17.4959,18.4961,0.2454
53,114.2341,0.1036,17.6780,5.2931,290.1129,123.2108,0.2680,14.8522,0.1376,0.0051,204.2036,182.2924,16.7805,12.4565,0.1863,0.1761,18.0389,17.5054,18.4230,0.2444
54,114.0593,0.1035,17.7023,4.9541,290.1880,123.2716,0.2694,14.8611,0.1378,0.0049,204.1881,181.6786,16.8066,12.4119,0.1864,0.1754,18.0505,17.5160,18.2429,0.2422
55,113.4653,0.1035,17.7187,4.5397,290.8696,123.3296,0.2720,14.8699,0.1381,0.0046,204.2421,180.5255,16.8362,12.3366,0.1866,0.1745,18.0577,17.5225,17.9335,0.2385
56,110.4831,0.1033,17.7304,3.4595,294.6148,123.5531,0.2782,14.9038,0.1385,0.0036,204.2190,175.6658,16.9424,11.9947,0.1870,0.1696,18.1018,17.5631,16.6700,0.2232
57,106.0378,0.1031,17.7430,2.8777,295.7114,123.7081,0.2787,14.9215,0.1388,0.0029,204.2976,171.9372,16.9550,11.7382,0.1873,0.1660,18.1307,17.5894,15.7420,0.2119
58,105.3957,0.1030,17.7852,2.3917,391.4951,123.9786,0.3335,14.9957,0.1408,0.0024,204.2597,168.1948,17.4987,11.4750,0.1876,0.1622,18.1679,17.6234,14.8316,0.2040
59,105.3070,0.1030,17.7945,2.2833,407.2312,124.0726,0.3450,15.0160,0.1413,0.0023,204.3188,167.3744,17.6195,11.4176,0.1877,0.1614,18.1809,17.6356,14.6289,0.2028
60,102.2315,0.1007,18.5078,1.9503,283.0904,124.6755,0.2855,15.0763,0.1415,0.0027,202.3511,170.9267,17.0491,11.6106,0.1889,0.1643,18.4172,17.8129,15.2625,0.2213
61,102.2317,0.1002,18.9101,2.8530,298.1140,120.5212,0.3131,14.7066,0.1671,0.0046,214.9946,169.3365,15.3715,12.3900,0.1864,0.1922,16.8622,16.2103,15.0182,0.2154
62,102.2320,0.1001,19.2231,3.6226,323.6905,122.0558,0.2349,15.0314,0.1689,0.0061,209.4318,182.6204,14.9439,12.9597,0.1871,0.1941,17.1066,16.3638,16.5483,0.2241
63,102.2298,0.1002,19.2279,3.6016,323.8763,122.1041,0.2348,15.0376,0.1689,0.0061,209.4937,182.5805,14.9481,12.9559,0.1871,0.1940,17.1134,16.3702,16.5265,0.2238
64,100.5323,0.1002,18.7699,3.1428,318.8930,122.2438,0.2478,15.0835,0.1696,0.0053,209.2668,180.3344,15.1521,12.7765,0.1872,0.1909,17.1333,16.3848,15.9420,0.2162
65,100.5223,0.1002,18.7873,2.9164,317.9443,122.3502,0.2738,15.1282,0.1705,0.0049,209.3133,178.9286,15.4673,12.6736,0.1873,0.1893,17.1434,16.3938,15.6116,0.2121
66,95.8667,0.1003,18.8085,2.5568,382.1617,122.5164,0.3337,15.2009,0.1727,0.0043,209.3615,176.4099,16.0478,12.4914,0.1874,0.1866,17.1553,16.4044,15.0439,0.2061
67,93.5843,0.1003,18.8183,2.3384,386.1762,122.6204,0.3548,15.2330,0.1735,0.0039,209.4533,174.7854,16.2622,12.3745,0.1875,0.1848,17.1663,16.4146,14.6807,0.2037
68,89.1731,0.1004,17.7814,1.8050,278.9037,122.9155,0.4137,15.3321,0.1780,0.0031,209.8292,169.8146,16.9240,12.1086,0.1886,0.1831,17.1563,16.3998,13.6494,0.2001
69,89.1719,0.1004,16.9419,1.6007,282.4036,123.0910,0.4496,15.3916,0.1783,0.0027,209.5306,167.9536,17.4780,11.9530,0.1888,0.1803,17.2159,16.4540,13.2923,0.2001
70,89.1718,0.1003,17.6427,1.6618,280.9912,123.4137,0.4155,15.3175,0.1704,0.0028,207.9028,170.5266,17.4797,12.0394,0.1891,0.1800,17.5555,16.7884,14.3425,0.2064
71,89.1711,0.1002,18.3308,2.1154,286.8683,124.0545,0.3282,15.4363,0.1674,0.0035,205.0014,177.6287,16.9968,12.3392,0.1891,0.1807,17.7123,16.9316,15.5149,0.2206
72,89.1713,0.1001,18.6405,2.6059,296.9206,124.3853,0.2788,15.5483,0.1691,0.0044,203.3166,183.0502,16.4967,12.5961,0.1888,0.1821,17.6332,16.8611,16.0595,0.2242
73,89.1715,0.1001,18.8463,3.0421,307.4296,124.5399,0.2449,15.5737,0.1692,0.0051,202.2761,187.1886,16.0727,12.8050,0.1886,0.1835,17.5989,16.8304,16.5807,0.2260
74,89.1717,0.1000,19.1139,3.5248,320.0880,124.6021,0.2118,15.5652,0.1690,0.0059,201.5246,191.2368,15.6047,13.0239,0.1882,0.1853,17.5565,16.8006,17.1568,0.2280
75,89.1722,0.1000,19.4699,4.2534,339.6764,124.6593,0.1740,15.6450,0.1739,0.0074,200.8260,196.6203,14.9134,13.3310,0.1877,0.1883,17.2663,16.5741,17.5688,0.2266
76,89.1711,0.1000,19.6167,4.6191,348.7955,124.5621,0.1611,15.7265,0.1791,0.0082,200.8789,198.8259,14.5574,13.4667,0.1872,0.1897,16.9784,16.3425,17.5092,0.2232
77,89.1715,0.1000,19.6368,4.6901,350.6323,124.5682,0.1588,15.7522,0.1804,0.0084,200.8247,199.3093,14.4926,13.4946,0.1872,0.1900,16.9170,16.2945,17.4824,0.2224
78,89.1713,0.1000,19.6381,4.7321,351.7856,124.5728,0.1577,15.7710,0.1814,0.0086,200.7917,199.5957,14.4544,13.5115,0.1871,0.1902,16.8747,16.2608,17.4541,0.2217
79,89.1714,0.1000,19.6393,4.7630,352.6755,124.5758,0.1568,15.7833,0.1820,0.0086,200.7660,199.8102,14.4267,13.5240,0.1871,0.1903,16.8474,16.2389,17.4388,0.2213
80,89.1706,0.1000,19.6468,4.7980,353.8057,124.5742,0.1552,15.7859,0.1821,0.0087,200.7222,200.0536,14.3963,13.5374,0.1871,0.1904,16.8397,16.2313,17.4595,0.2213
81,89.1704,0.1000,19.6694,4.8337,354.9322,124.5694,0.1530,15.7847,0.1821,0.0088,200.6570,200.3022,14.3667,13.5525,0.1871,0.1906,16.8441,16.2333,17.4996,0.2216
82,89.1707,0.1000,19.6637,4.8420,355.4341,124.5798,0.1524,15.7900,0.1822,0.0088,200.6117,200.4143,14.3629,13.5590,0.1872,0.1906,16.8463,16.2342,17.5057,0.2215
83,89.1712,0.1000,19.7124,4.9207,356.2883,124.6360,0.1526,15.8825,0.1861,0.0091,200.5387,200.9745,14.2989,13.5947,0.1871,0.1910,16.6803,16.1083,17.2933,0.2186
84,89.1705,0.1000,19.7238,4.9629,356.5627,124.6820,0.1536,15.9401,0.1887,0.0093,200.5141,201.2433,14.2615,13.6087,0.1870,0.1912,16.5658,16.0217,17.1364,0.2165
85,89.1702,0.1000,19.7302,4.9936,356.6674,124.7380,0.1545,15.9830,0.1907,0.0095,200.5078,201.4628,14.2388,13.6205,0.1870,0.1913,16.4804,15.9598,17.0189,0.2149
86,89.1699,0.1000,19.7666,5.0811,356.9387,124.8088,0.1563,16.0860,0.1955,0.0099,200.4848,201.9079,14.1663,13.6474,0.1869,0.1917,16.2647,15.7973,16.7318,0.2111
87,89.1702,0.1000,19.7718,5.1083,356.9395,124.8366,0.1572,16.1241,0.1973,0.0100,200.4711,202.0574,14.1439,13.6564,0.1868,0.1918,16.1867,15.7375,16.6237,0.2097
88,80.0522,0.1001,19.2928,5.1985,342.7750,124.3116,0.2086,16.0249,0.2071,0.0097,204.3697,198.4240,14.0549,13.8362,0.1889,0.2042,15.8761,15.4357,16.2543,0.2055
89,79.6500,0.1001,18.8600,5.5372,316.8167,124.3390,0.2192,16.0407,0.2078,0.0095,204.4890,197.7379,14.1771,13.7986,0.1890,0.2039,15.8716,15.4314,16.1170,0.2044
90,79.2501,0.1001,18.5379,5.9787,293.6443,124.3709,0.2300,16.0594,0.2082,0.0092,204.5143,197.0335,14.3174,13.7494,0.1890,0.2032,15.8733,15.4331,15.9693,0.2033
91,78.8565,0.1001,18.2705,6.5194,276.8877,124.4025,0.2425,16.0794,0.2086,0.0088,204.5351,196.2292,14.4759,13.6932,0.1890,0.2023,15.8746,15.4345,15.8022,0.2023
92,78.4559,0.1001,18.0332,7.1543,271.0668,124.4314,0.2544,16.0973,0.2090,0.0085,204.5535,195.4911,14.6215,13.6417,0.1891,0.2016,15.8759,15.4358,15.6496,0.2015
93,78.0473,0.1001,18.0338,8.4464,281.6981,124.4846,0.2747,16.1266,0.2098,0.0080,204.5912,194.2722,14.8654,13.5565,0.1891,0.2003,15.8785,15.4384,15.3993,0.2007
94,77.6486,0.1001,18.0354,9.2218,294.6852,124.5379,0.2985,16.1562,0.2110,0.0075,204.7630,192.8372,15.1272,13.4753,0.1893,0.1996,15.8705,15.4308,15.1209,0.2002
95,77.2430,0.1002,18.0380,9.2336,296.7556,124.5984,0.3206,16.1897,0.2119,0.0070,204.8074,191.4609,15.4071,13.3790,0.1893,0.1982,15.8737,15.4341,14.8445,0.2001
96,76.8475,0.1002,18.0423,8.7852,284.2879,124.6635,0.3454,16.2283,0.2127,0.0065,204.8524,189.8820,15.7291,13.2684,0.1894,0.1965,15.8770,15.4374,14.5318,0.2001
97,76.4496,0.1002,18.0473,8.2463,257.1889,124.7267,0.3693,16.2661,0.2136,0.0060,204.8955,188.3529,16.0434,13.1612,0.1894,0.1949,15.8802,15.4407,14.2325,0.2001
98,76.0534,0.1002,17.5470,8.0894,217.0780,124.7894,0.3942,16.3026,0.2145,0.0056,204.9350,186.8521,16.3539,13.0560,0.1894,0.1934,15.8831,15.4437,13.9427,0.2001
99,75.6543,0.1003,17.1247,8.4575,178.3264,124.8469,0.4187,16.3317,0.2153,0.0053,204.9678,185.6006,16.6146,12.9683,0.1895,0.1921,15.8855,15.4462,13.7039,0.2001
100,75.2501,0.1003,16.6728,9.1878,133.9180,124.8994,0.4533,16.3544,0.2167,0.0050,205.1371,184.2342,16.8718,12.8878,0.1896,0.1912,15.8771,15.4381,13.4574,0.2000
101,74.8538,0.1003,16.2235,9.9637,92.2520,125.0002,0.5082,16.3792,0.2184,0.0047,205.1692,182.8536,17.1632,12.7909,0.1896,0.1898,15.8795,15.4406,13.2002,0.2000
102,74.4500,0.1003,15.6893,10.5595,59.7042,125.1609,0.6034,16.4022,0.2211,0.0044,205.2043,181.2679,17.5005,12.6794,0.1897,0.1881,15.8823,15.4434,12.9089,0.2000
103,74.0464,0.1003,15.6753,10.4777,34.2060,125.3848,0.7410,16.4248,0.2247,0.0042,205.2439,179.4893,17.8826,12.5545,0.1897,0.1863,15.8854,15.4467,12.5870,0.2000
104,73.6436,0.1004,15.6486,9.7992,15.9700,125.6492,0.9053,16.4504,0.2287,0.0041,205.2879,177.5034,18.3134,12.4150,0.1897,0.1842,15.8889,15.4502,12.2339,0.2001
105,73.2478,0.1004,15.6172,8.9867,6.1296,125.8463,1.0444,16.4749,0.2320,0.0041,205.4642,175.3896,18.7441,12.2794,0.1898,0.1824,15.8811,15.4428,11.8747,0.2000
106,72.8682,0.1004,15.1556,8.8911,57.9546,125.9473,1.1014,16.5058,0.2325,0.0043,205.4951,173.6818,19.1190,12.1594,0.1898,0.1806,15.8831,15.4450,11.5816,0.2000
107,72.4617,0.1004,14.8058,9.4284,118.1235,125.9497,1.0927,16.5307,0.2313,0.0045,205.5200,172.5972,19.3600,12.0831,0.1899,0.1795,15.8847,15.4467,11.3975,0.2000
108,72.0695,0.1004,14.5443,10.3602,173.5404,125.9045,1.0531,16.5547,0.2295,0.0047,205.5400,171.7103,19.5577,12.0208,0.1899,0.1786,15.8858,15.4479,11.2487,0.2000
109,71.6683,0.1004,14.3111,11.5175,218.3040,125.8418,1.0022,16.5780,0.2273,0.0049,205.5585,170.9295,19.7326,11.9660,0.1899,0.1778,15.8867,15.4488,11.1187,0.2000
110,71.2686,0.1004,14.0886,12.8568,253.8431,125.7789,0.9518,16.6011,0.2252,0.0051,205.5763,170.1618,19.9050,11.9121,0.1899,0.1770,15.8875,15.4497,10.9919,0.2000
111,70.8726,0.1004,13.8839,14.2726,280.4612,125.7338,0.9148,16.6226,0.2235,0.0054,205.5928,169.3918,20.0783,11.8581,0.1899,0.1762,15.8881,15.4505,10.8658,0.2000
112,70.4648,0.1004,13.6783,15.5676,298.7462,125.7194,0.8999,16.6400,0.2224,0.0056,205.6072,168.6781,20.2394,11.8081,0.1900,0.1754,15.8886,15.4511,10.7498,0.2000
113,70.0690,0.1004,13.4759,16.9156,313.5097,125.7389,0.9090,16.6559,0.2221,0.0058,205.6210,167.8823,20.4194,11.7524,0.1900,0.1746,15.8890,15.4516,10.6213,0.2000
114,69.6684,0.1004,13.2889,18.1322,323.7893,125.7861,0.9384,16.6681,0.2224,0.0060,205.6329,167.1223,20.5918,11.6992,0.1900,0.1738,15.8893,15.4519,10.4996,0.2000
115,69.2780,0.1004,13.1450,19.2585,329.6860,125.8480,0.9793,16.6773,0.2231,0.0062,205.6414,166.4357,20.7476,11.6511,0.1900,0.1731,15.8893,15.4520,10.3904,0.2000
116,68.8825,0.1004,13.0144,20.4269,331.4225,125.9221,1.0294,16.6847,0.2241,0.0065,205.6491,165.7874,20.8950,11.6058,0.1900,0.1724,15.8893,15.4521,10.2879,0.2000
117,68.4500,0.1004,12.8013,21.5256,333.5143,126.0003,1.0813,16.6918,0.2252,0.0067,205.6587,165.1622,21.0385,11.5621,0.1900,0.1718,15.8895,15.4523,10.1896,0.2000
118,68.0743,0.1004,12.6041,22.7809,339.8713,126.1204,1.1639,16.7044,0.2270,0.0069,205.6673,164.0990,21.2817,11.4878,0.1900,0.1707,15.8891,15.4522,10.0246,0.2000
119,67.6762,0.1004,12.4655,23.5460,342.3453,126.2049,1.2224,16.7145,0.2283,0.0071,205.6729,163.3096,21.4627,11.4327,0.1900,0.1699,15.8888,15.4520,9.9029,0.2000
120,67.2588,0.1004,12.3708,23.9462,342.6906,126.2451,1.2500,16.7198,0.2289,0.0072,205.6763,162.9249,21.5513,11.4058,0.1900,0.1695,15.8886,15.4519,9.8438,0.2000
121,66.8661,0.1004,12.2749,24.6470,342.6578,126.2892,1.2805,16.7265,0.2295,0.0074,205.6803,162.4616,21.6582,11.3735,0.1900,0.1690,15.8884,15.4518,9.7730,0.2000
122,66.4547,0.1004,12.1675,25.5267,343.4397,126.3250,1.3053,16.7333,0.2300,0.0075,205.6838,162.0283,21.7583,11.3432,0.1900,0.1686,15.8882,15.4516,9.7072,0.2000
123,66.0552,0.1004,11.9787,27.1391,351.1879,126.3755,1.3408,16.7489,0.2305,0.0076,205.6889,161.1240,21.9679,11.2801,0.1900,0.1677,15.8877,15.4512,9.5710,0.2000
124,65.6663,0.1004,11.8329,28.1036,360.6448,126.4068,1.3640,16.7669,0.2307,0.0078,205.6921,160.1600,22.1915,11.2128,0.1900,0.1667,15.8869,15.4506,9.4273,0.2000
125,65.2789,0.1004,11.7323,28.6535,363.3126,126.4155,1.3721,16.7839,0.2303,0.0080,205.6937,159.3270,22.3851,11.1546,0.1900,0.1658,15.8861,15.4499,9.3042,0.2000
126,64.8822,0.1004,11.6564,29.2725,358.5929,126.4060,1.3678,16.7991,0.2295,0.0083,205.6946,158.6578,22.5409,11.1079,0.1900,0.1651,15.8853,15.4492,9.2061,0.2000
